Data from TORH001341_13-33-36-011.txt Node
Date: Mon Oct 17 13:33:36 CEST 2022
User: M Squared
Spectrometer: TORH00134
Trigger mode: 0
Integration Time (sec): 1.000000E-1
Scans to average: 1
Electric dark correction enabled: true
Nonlinearity correction enabled: false
Boxcar width: 0
XAxis mode: Wavelengths
Number of Pixels in Spectrum: 2048
>>>>>Begin Spectral Data<<<<<
342.893	-31.67
343.163	-31.67
343.434	-31.67
343.705	-61.59
343.975	-89.38
344.246	-121.45
344.516	-89.38
344.787	-48.77
345.057	-40.22
345.328	21.78
345.598	-12.43
345.869	13.23
346.139	-3.87
346.409	43.16
346.68	66.67
346.95	66.67
347.22	117.98
347.491	169.28
347.761	88.05
348.031	81.64
348.301	154.32
348.572	111.56
348.842	165.01
349.112	165.01
349.382	209.9
349.652	222.73
349.922	237.69
350.192	289
350.462	289
350.732	237.69
351.002	252.66
351.272	220.59
351.542	274.03
351.812	250.52
352.082	271.9
352.352	248.38
352.621	237.69
352.891	269.76
353.161	274.03
353.431	348.85
353.701	284.72
353.97	286.86
354.24	261.21
354.51	254.79
354.779	310.38
355.049	295.41
355.318	269.76
355.588	286.86
355.858	254.79
356.127	201.35
356.397	265.48
356.666	248.38
356.936	231.28
357.205	212.04
357.474	244.1
357.744	186.39
358.013	301.82
358.283	239.83
358.552	244.1
358.821	246.24
359.09	231.28
359.36	179.97
359.629	237.69
359.898	286.86
360.167	259.07
360.436	231.28
360.706	269.76
360.975	250.52
361.244	256.93
361.513	216.31
361.782	254.79
362.051	227
362.32	250.52
362.589	231.28
362.858	212.04
363.127	241.97
363.396	248.38
363.664	165.01
363.933	220.59
364.202	212.04
364.471	231.28
364.74	308.24
365.008	263.34
365.277	241.97
365.546	229.14
365.815	323.2
366.083	276.17
366.352	254.79
366.62	224.87
366.889	301.82
367.158	274.03
367.426	271.9
367.695	246.24
367.963	222.73
368.232	306.1
368.5	276.17
368.768	248.38
369.037	231.28
369.305	269.76
369.573	218.45
369.842	284.72
370.11	244.1
370.378	194.94
370.647	197.07
370.915	274.03
371.183	184.25
371.451	254.79
371.719	286.86
371.988	235.55
372.256	293.27
372.524	308.24
372.792	274.03
373.06	241.97
373.328	220.59
373.596	248.38
373.864	250.52
374.132	274.03
374.4	239.83
374.667	199.21
374.935	295.41
375.203	246.24
375.471	284.72
375.739	233.42
376.007	218.45
376.274	271.9
376.542	250.52
376.81	259.07
377.077	205.63
377.345	214.18
377.613	254.79
377.88	222.73
378.148	261.21
378.415	224.87
378.683	241.97
378.95	241.97
379.218	235.55
379.485	209.9
379.753	212.04
380.02	216.31
380.287	252.66
380.555	239.83
380.822	303.96
381.089	199.21
381.357	269.76
381.624	231.28
381.891	229.14
382.158	265.48
382.426	336.03
382.693	229.14
382.96	263.34
383.227	269.76
383.494	222.73
383.761	286.86
384.028	259.07
384.295	327.48
384.562	284.72
384.829	231.28
385.096	259.07
385.363	265.48
385.63	212.04
385.897	269.76
386.164	265.48
386.43	237.69
386.697	207.76
386.964	265.48
387.231	256.93
387.497	233.42
387.764	218.45
388.031	241.97
388.297	274.03
388.564	276.17
388.831	256.93
389.097	286.86
389.364	244.1
389.63	295.41
389.897	235.55
390.163	227
390.43	261.21
390.696	241.97
390.962	244.1
391.229	231.28
391.495	214.18
391.761	188.52
392.028	256.93
392.294	276.17
392.56	209.9
392.826	291.14
393.093	267.62
393.359	237.69
393.625	259.07
393.891	301.82
394.157	222.73
394.423	269.76
394.689	201.35
394.955	220.59
395.221	252.66
395.487	308.24
395.753	246.24
396.019	261.21
396.285	269.76
396.551	205.63
396.817	265.48
397.082	280.45
397.348	274.03
397.614	286.86
397.88	295.41
398.146	261.21
398.411	224.87
398.677	265.48
398.942	259.07
399.208	246.24
399.474	235.55
399.739	250.52
400.005	227
400.27	306.1
400.536	246.24
400.801	265.48
401.067	207.76
401.332	329.62
401.598	265.48
401.863	252.66
402.128	256.93
402.394	241.97
402.659	271.9
402.924	301.82
403.189	297.55
403.455	284.72
403.72	295.41
403.985	293.27
404.25	227
404.515	231.28
404.78	254.79
405.045	278.31
405.31	250.52
405.575	280.45
405.84	248.38
406.105	321.06
406.37	239.83
406.635	301.82
406.9	265.48
407.165	359.54
407.43	284.72
407.694	303.96
407.959	297.55
408.224	246.24
408.489	295.41
408.753	299.69
409.018	231.28
409.283	297.55
409.547	297.55
409.812	235.55
410.077	271.9
410.341	265.48
410.606	327.48
410.87	286.86
411.135	241.97
411.399	282.58
411.663	269.76
411.928	336.03
412.192	271.9
412.457	291.14
412.721	280.45
412.985	256.93
413.249	263.34
413.514	269.76
413.778	301.82
414.042	353.13
414.306	299.69
414.57	327.48
414.835	338.17
415.099	338.17
415.363	336.03
415.627	314.65
415.891	312.51
416.155	256.93
416.419	329.62
416.683	299.69
416.946	432.23
417.21	376.65
417.474	374.51
417.738	329.62
418.002	323.2
418.266	387.33
418.529	355.27
418.793	323.2
419.057	363.82
419.32	338.17
419.584	363.82
419.848	342.44
420.111	400.16
420.375	442.92
420.638	374.51
420.902	436.5
421.165	440.78
421.429	380.92
421.692	504.91
421.956	464.29
422.219	460.02
422.482	515.6
422.746	453.6
423.009	460.02
423.272	481.4
423.536	507.05
423.799	483.53
424.062	577.59
424.325	573.32
424.588	558.35
424.852	543.39
425.115	575.46
425.378	592.56
425.641	592.56
425.904	663.1
426.167	669.52
426.43	654.55
426.693	695.17
426.956	720.82
427.218	690.9
427.481	765.72
427.744	797.78
428.007	787.09
428.27	776.41
428.532	883.29
428.795	866.19
429.058	868.33
429.321	879.02
429.583	913.22
429.846	962.39
430.108	981.63
430.371	990.18
430.634	1097.07
430.896	1120.58
431.159	1148.37
431.421	1152.65
431.683	1253.12
431.946	1257.4
432.208	1225.33
432.471	1392.08
432.733	1353.6
432.995	1430.56
433.258	1441.25
433.52	1501.1
433.782	1516.07
434.044	1618.68
434.306	1573.79
434.569	1697.78
434.831	1618.68
435.093	1819.63
435.355	1811.08
435.617	1864.52
435.879	1922.24
436.141	1960.72
436.403	2024.85
436.665	2153.12
436.927	2142.43
437.189	2319.86
437.45	2413.93
437.712	2326.28
437.974	2418.2
438.236	2561.43
438.498	2433.17
438.759	2572.12
439.021	2646.94
439.283	2796.58
439.544	2931.26
439.806	2959.05
440.067	3112.97
440.329	3147.18
440.59	3187.79
440.852	3249.79
441.113	3414.39
441.375	3534.11
441.636	3557.62
441.898	3660.24
442.159	3841.95
442.42	3957.38
442.682	4085.65
442.943	4207.5
443.204	4201.09
443.466	4436.24
443.727	4600.85
443.988	4801.8
444.249	4857.38
444.51	4959.99
444.771	5180.18
445.032	5421.75
445.293	5443.12
445.554	5494.43
445.815	5954.05
446.076	6103.69
446.337	6114.38
446.598	6537.65
446.859	6916.04
447.12	7037.89
447.381	7196.08
447.642	7730.52
447.902	7865.2
448.163	8076.84
448.424	8207.24
448.685	8688.23
448.945	8726.71
449.206	9128.61
449.466	9502.72
449.727	9459.96
449.988	9729.32
450.248	9799.87
450.509	10372.79
450.769	10505.33
451.03	10821.71
451.29	11078.24
451.55	11300.57
451.811	11191.55
452.071	11435.25
452.331	11437.39
452.592	11354.01
452.852	11456.63
453.112	11510.07
453.372	11612.68
453.633	11426.7
453.893	11728.12
454.153	11304.85
454.413	11296.3
454.673	10907.22
454.933	10789.65
455.193	10342.86
455.453	10325.75
455.713	10173.97
455.973	9750.7
456.233	9474.93
456.493	9303.91
456.752	9015.31
457.012	8662.58
457.272	8273.51
457.532	7931.47
457.792	7775.41
458.051	7493.23
458.311	7172.57
458.571	7065.68
458.83	6706.54
459.09	6635.99
459.349	6302.5
459.609	6189.2
459.868	5947.63
460.128	5842.88
460.387	5492.29
460.647	5515.81
460.906	5295.62
461.166	5193.01
461.425	5088.26
461.684	4981.37
461.944	4917.24
462.203	4910.82
462.462	4675.67
462.721	4735.53
462.98	4547.4
463.24	4756.9
463.499	4615.81
463.758	4500.37
464.017	4344.32
464.276	4284.46
464.535	4342.18
464.794	4201.09
465.053	4290.87
465.312	4372.11
465.571	4111.3
465.83	4117.72
466.088	4121.99
466.347	4074.96
466.606	4188.26
466.865	3970.21
467.123	3946.7
467.382	3980.9
467.641	3865.46
467.9	3965.94
468.158	3931.73
468.417	3747.88
468.675	3724.37
468.934	3688.03
469.192	3617.48
469.451	3598.24
469.709	3613.21
469.968	3531.97
470.226	3489.22
470.484	3564.04
470.743	3343.85
471.001	3266.89
471.259	3245.51
471.518	3217.72
471.776	3245.51
472.034	3179.24
472.292	3089.46
472.55	3010.36
472.809	2956.92
473.067	2843.61
473.325	2941.95
473.583	2873.54
473.841	2794.45
474.099	2743.14
474.357	2792.31
474.615	2679.01
474.872	2557.16
475.13	2617.01
475.388	2546.47
475.646	2413.93
475.904	2471.64
476.161	2555.02
476.419	2529.36
476.677	2426.75
476.935	2473.78
477.192	2503.71
477.45	2309.18
477.707	2354.07
477.965	2405.37
478.222	2253.59
478.48	2371.17
478.737	2443.85
478.995	2330.55
479.252	2411.79
479.51	2469.51
479.767	2356.21
480.024	2403.24
480.282	2358.34
480.539	2507.99
480.796	2497.3
481.053	2324.14
481.31	2396.82
481.568	2445.99
481.825	2460.96
482.082	2488.75
482.339	2431.03
482.596	2445.99
482.853	2480.2
483.11	2443.85
483.367	2450.27
483.624	2416.06
483.881	2499.44
484.138	2480.2
484.394	2426.75
484.651	2552.88
484.908	2315.59
485.165	2245.04
485.421	2268.56
485.678	2482.33
485.935	2520.81
486.191	2604.19
486.448	2623.43
486.705	2518.68
486.961	2593.5
487.218	2531.5
487.474	2617.01
487.731	2608.46
487.987	2683.28
488.243	2719.62
488.5	2796.58
488.756	2768.79
489.012	2627.7
489.269	2563.57
489.525	2597.77
489.781	2533.64
490.037	2614.87
490.294	2619.15
490.55	2841.48
490.806	3003.95
491.062	3087.32
491.318	3059.53
491.574	3053.11
491.83	3108.7
492.086	2886.37
492.342	2909.88
492.598	2832.93
492.854	3070.22
493.11	3010.36
493.365	3130.07
493.621	3217.72
493.877	3136.49
494.133	3106.56
494.388	3194.21
494.644	3256.2
494.9	3322.47
495.155	3331.02
495.411	3433.63
495.667	3444.32
495.922	3589.69
496.178	3602.52
496.433	3598.24
496.688	3564.04
496.944	3651.69
497.199	3720.09
497.455	3846.22
497.71	3876.15
497.965	3891.11
498.221	3936.01
498.476	4166.88
498.731	4136.96
498.986	4162.61
499.241	4295.15
499.496	4267.36
499.752	4517.48
500.007	4357.14
500.262	4538.85
500.517	4551.68
500.772	4630.78
501.027	4776.14
501.282	4797.52
501.536	4885.17
501.791	5002.75
502.046	5045.5
502.301	5116.05
502.556	5188.73
502.81	5210.11
503.065	5349.06
503.32	5406.78
503.574	5492.29
503.829	5594.9
504.084	5674
504.338	5748.82
504.593	5787.3
504.847	5874.95
505.102	5870.67
505.356	5969.01
505.611	6105.83
505.865	6266.16
506.119	6293.95
506.374	6321.74
506.628	6353.81
506.882	6561.17
507.136	6450.01
507.391	6601.79
507.645	6736.47
507.899	6860.45
508.153	7057.13
508.407	6845.49
508.661	7155.46
508.915	7123.4
509.169	7170.43
509.423	7375.65
509.677	7488.95
509.931	7482.54
510.185	7597.98
510.439	7969.95
510.693	7963.54
510.946	7922.92
511.2	7895.13
511.454	8211.52
511.708	8177.31
511.961	8423.15
512.215	8376.12
512.469	8555.69
512.722	8536.45
512.976	8585.62
513.229	8805.81
513.483	8964.01
513.736	8891.32
513.99	9038.83
514.243	9171.37
514.496	9327.42
514.75	9395.83
515.003	9515.55
515.256	9707.94
515.51	9763.53
515.763	9671.6
516.016	9774.21
516.269	10103.43
516.522	10131.22
516.775	10064.95
517.029	10351.41
517.282	10483.95
517.535	10672.07
517.788	10721.24
518.041	10992.73
518.293	10757.58
518.546	10853.78
518.799	11142.38
519.052	11345.46
519.305	11330.5
519.558	11373.25
519.81	11527.17
520.063	11693.92
520.316	11732.4
520.568	11965.41
520.821	11937.62
521.074	12288.21
521.326	12354.48
521.579	12221.94
521.831	12559.71
522.084	12608.88
522.336	12758.52
522.589	12886.78
522.841	13044.98
523.093	13038.57
523.346	13098.42
523.598	13534.52
523.85	13496.04
524.102	13506.73
524.355	13483.22
524.607	13517.42
524.859	13891.53
525.111	14024.07
525.363	14006.97
525.615	14381.07
525.867	14182.26
526.119	14475.14
526.371	14650.43
526.623	14716.7
526.875	14678.22
527.127	14810.76
527.379	14964.68
527.63	14883.45
527.882	15067.29
528.134	14973.23
528.386	15255.42
528.637	15291.76
528.889	15338.79
529.141	15586.77
529.392	15443.54
529.644	15849.71
529.895	15824.06
530.147	15905.29
530.398	16097.69
530.65	16151.14
530.901	16187.48
531.152	16529.52
531.404	16352.08
531.655	16520.97
531.906	16576.55
532.158	16362.77
532.409	16672.75
532.66	16437.59
532.911	16627.85
533.162	16696.26
533.413	16728.33
533.664	16899.35
533.915	16937.83
534.166	17234.98
534.417	16798.88
534.668	17290.56
534.919	16910.04
535.17	17378.21
535.421	17288.42
535.672	17497.92
535.923	17470.13
536.173	17542.81
536.424	17867.75
536.675	17598.4
536.925	17485.09
537.176	17641.15
537.427	17810.03
537.677	17662.53
537.928	17743.76
538.178	17899.82
538.429	18216.21
538.679	17865.61
538.93	18297.44
539.18	18169.18
539.43	18410.74
539.681	18282.48
539.931	18256.82
540.181	18329.51
540.432	18970.83
540.682	18680.1
540.932	18509.08
541.182	19032.83
541.432	18861.81
541.682	18900.29
541.932	19077.72
542.182	18904.56
542.432	19007.18
542.682	19135.44
542.932	19377.01
543.182	19182.47
543.432	19223.09
543.682	19357.77
543.932	19336.39
544.181	19582.23
544.431	19772.49
544.681	19742.56
544.93	19723.32
545.18	19513.82
545.43	20029.02
545.679	20039.71
545.929	19757.53
546.178	20204.32
546.428	20082.47
546.677	20334.72
546.927	20187.22
547.176	20277
547.425	20259.9
547.675	20619.04
547.924	20589.11
548.173	20554.91
548.422	20264.18
548.672	21093.62
548.921	21001.7
549.17	21209.06
549.419	21085.07
549.668	21390.77
549.917	21330.91
550.166	21253.96
550.415	21444.22
550.664	21450.63
550.913	21551.1
551.162	21852.53
551.411	21540.41
551.66	21803.36
551.908	21938.04
552.157	22382.69
552.406	22083.4
552.655	22530.19
552.903	22269.39
553.152	22339.93
553.4	22562.26
553.649	22667.01
553.898	22444.68
554.146	22290.77
554.395	22572.95
554.643	23376.75
554.891	23011.19
555.14	22957.75
555.388	23030.43
555.636	23299.79
555.885	23614.04
556.133	23842.78
556.381	23663.2
556.629	23631.14
556.878	23968.9
557.126	24060.83
557.374	24030.9
557.622	23981.73
557.87	24227.57
558.118	24625.19
558.366	24603.82
558.614	24811.18
558.862	25005.71
559.11	24982.2
559.357	24928.76
559.605	25163.91
559.853	25535.88
560.101	25595.73
560.348	25358.44
560.596	25422.58
560.844	25544.43
561.091	25236.59
561.339	25649.18
561.586	25862.95
561.834	25882.19
562.081	26010.46
562.329	26040.39
562.576	26117.35
562.824	26326.85
563.071	26427.32
563.318	26720.19
563.566	26820.67
563.813	27196.91
564.06	26910.45
564.307	26912.59
564.555	26863.42
564.802	26961.76
565.049	26884.8
565.296	27188.36
565.543	27137.06
565.79	27359.38
566.037	27598.81
566.284	27744.18
566.531	27908.78
566.778	27613.77
567.024	27697.15
567.271	28344.89
567.518	27799.76
567.765	28026.36
568.012	27951.54
568.258	27998.57
568.505	28173.87
568.751	28154.63
568.998	27936.58
569.245	28406.88
569.491	28498.81
569.738	28755.34
569.984	28387.64
570.23	28890.01
570.477	28872.91
570.723	28646.31
570.97	28691.2
571.216	28870.77
571.462	28795.95
571.708	28571.49
571.955	28693.34
572.201	28462.46
572.447	28522.32
572.693	28911.39
572.939	28964.84
573.185	28836.57
573.431	29097.38
573.677	28913.53
573.923	28909.25
574.169	28759.61
574.415	28881.46
574.661	28866.5
574.906	28727.54
575.152	28545.84
575.398	28821.61
575.644	28870.77
575.889	29161.51
576.135	28877.19
576.381	28612.11
576.626	28678.38
576.872	28571.49
577.117	28637.76
577.363	28462.46
577.608	28748.92
577.854	28733.96
578.099	28680.51
578.344	28569.35
578.59	28603.56
578.835	28500.94
579.08	28351.3
579.325	28466.74
579.571	28291.44
579.816	28464.6
580.061	28385.5
580.306	28270.07
580.551	28028.5
580.796	28101.18
581.041	27928.02
581.286	28270.07
581.531	28011.4
581.776	28092.63
582.021	28359.85
582.265	27981.47
582.51	27697.15
582.755	27776.24
583	27517.58
583.244	27923.75
583.489	27331.59
583.734	27538.95
583.978	27344.42
584.223	27549.64
584.467	27400
584.712	27096.44
584.956	27393.59
585.201	26985.28
585.445	27382.9
585.689	27374.35
585.934	27117.82
586.178	27064.37
586.422	26983.14
586.667	26829.22
586.911	26653.92
587.155	27154.16
587.399	26733.02
587.643	26737.3
587.887	26653.92
588.131	26681.71
588.375	26132.31
588.619	26621.86
588.863	26172.93
589.107	26405.94
589.351	26245.61
589.595	26175.07
589.839	26187.89
590.082	25912.12
590.326	26091.69
590.57	25837.3
590.813	25788.13
591.057	25595.73
591.301	25724
591.544	25458.92
591.788	25576.49
592.031	25621.39
592.275	25294.31
592.518	25283.62
592.762	24881.72
593.005	25305
593.248	24907.38
593.492	24811.18
593.735	24817.59
593.978	24768.42
594.221	24665.81
594.464	24674.36
594.708	24610.23
594.951	24652.98
595.194	24616.64
595.437	24003.11
595.68	24590.99
595.923	23909.05
596.166	23979.59
596.409	24343.01
596.651	23720.92
596.894	23720.92
597.137	23443.02
597.38	23729.48
597.623	23648.24
597.865	23631.14
598.108	23306.2
598.351	23100.98
598.593	23201.45
598.836	23306.2
599.078	23212.14
599.321	22914.99
599.563	22718.32
599.806	22660.6
600.048	22570.81
600.29	23047.53
600.533	22466.06
600.775	22269.39
601.017	22487.44
601.26	22233.05
601.502	22183.88
601.744	21912.38
601.986	22143.26
602.228	22032.1
602.47	21980.79
602.712	21848.25
602.954	21709.3
603.196	21754.19
603.438	21373.67
603.68	21281.75
603.922	21191.96
604.164	21345.88
604.405	20922.6
604.647	21072.25
604.889	21046.59
605.131	20843.51
605.372	20845.64
605.614	20830.68
605.855	20749.45
606.097	20597.66
606.338	20798.61
606.58	20448.02
606.821	20101.71
607.063	20043.99
607.304	20050.4
607.546	20236.38
607.787	20304.79
608.028	19866.55
608.269	20078.19
608.511	19971.3
608.752	19391.97
608.993	19810.97
609.234	19533.06
609.475	19406.94
609.716	19344.94
609.957	19404.8
610.198	18979.38
610.439	19056.34
610.68	19007.18
610.921	19032.83
611.162	18712.17
611.402	18919.53
611.643	18701.48
611.884	18761.33
612.125	18216.21
612.365	18340.2
612.606	18361.57
612.846	18105.04
613.087	18064.43
613.328	18421.43
613.568	17983.19
613.809	18045.19
614.049	17549.23
614.289	17579.16
614.53	17408.14
614.77	17476.54
615.01	17284.15
615.251	17470.13
615.491	17066.09
615.731	17130.23
615.971	17053.27
616.211	17117.4
616.451	17019.06
616.691	16638.54
616.931	16390.56
617.171	16420.49
617.411	16535.93
617.651	16448.28
617.891	16080.59
618.131	16170.38
618.371	16285.81
618.61	15862.54
618.85	15576.08
619.09	15452.09
619.33	15723.58
619.569	15501.26
619.809	15458.5
620.048	15336.65
620.288	15189.15
620.527	14977.51
620.767	15045.92
621.006	15030.95
621.246	14877.03
621.485	14624.78
621.724	14359.7
621.964	14631.19
622.203	14534.99
622.442	14024.07
622.681	14237.85
622.92	14041.17
623.159	14088.2
623.399	13573
623.638	13968.49
623.877	13397.71
624.116	13431.91
624.355	13545.21
624.593	13318.61
624.832	13186.07
625.071	13049.25
625.31	13117.66
625.549	12929.54
625.787	12906.02
626.026	12809.83
626.265	12660.18
626.503	12354.48
626.742	12495.58
626.981	12549.02
627.219	12335.24
627.458	12185.6
627.696	11961.14
627.934	12042.37
628.173	11976.1
628.411	11802.94
628.649	11696.06
628.888	11625.51
629.126	11473.73
629.364	11298.43
629.602	11108.17
629.84	11386.08
630.079	11294.16
630.317	11052.59
630.555	11133.83
630.793	10862.33
631.031	10763.99
631.269	10684.9
631.506	10597.25
631.744	10460.43
631.982	10642.14
632.22	10575.87
632.458	10229.56
632.695	10351.41
632.933	10118.39
633.171	9891.79
633.408	10039.3
633.646	9913.17
633.883	9744.29
634.121	9665.19
634.358	9787.04
634.596	9601.06
634.833	9368.04
635.071	9530.51
635.308	9314.6
635.545	9278.26
635.782	9122.2
636.02	8882.77
636.257	9179.92
636.494	8850.7
636.731	8914.84
636.968	8835.74
637.205	8801.54
637.442	8846.43
637.679	8604.86
637.916	8399.64
638.153	8495.84
638.39	8423.15
638.627	8314.13
638.864	8397.5
639.1	8117.45
639.337	8087.53
639.574	8051.18
639.81	7952.85
640.047	7878.03
640.284	7636.46
640.52	7957.12
640.757	7769
640.993	7745.49
641.23	7625.77
641.466	7681.35
641.702	7493.23
641.939	7473.99
642.175	7290.14
642.411	7311.52
642.647	7266.63
642.884	7221.74
643.12	7136.23
643.356	7104.16
643.592	6950.24
643.828	6948.1
644.064	6958.79
644.3	6800.6
644.536	6877.56
644.772	6774.94
645.008	6612.48
645.244	6512
645.479	6685.16
645.715	6417.94
645.951	6417.94
646.187	6328.15
646.422	6516.28
646.658	6338.84
646.893	6349.53
647.129	6343.12
647.365	6129.34
647.6	6229.82
647.835	6007.49
648.071	6026.73
648.306	5870.67
648.542	5885.64
648.777	5845.02
649.012	5797.99
649.247	5804.4
649.483	5680.41
649.718	5714.62
649.953	5791.58
650.188	5684.69
650.423	5665.45
650.658	5473.05
650.893	5509.39
651.128	5396.09
651.363	5477.33
651.598	5317
651.832	5528.63
652.067	5240.04
652.302	5203.7
652.537	5229.35
652.771	5135.29
653.006	5109.63
653.241	5306.31
653.475	5107.5
653.71	5077.57
653.944	5009.16
654.179	5039.09
654.413	4876.62
654.648	4887.31
654.882	4872.34
655.116	4825.31
655.351	4776.14
655.585	4718.42
655.819	4791.11
656.053	4570.92
656.287	4581.61
656.521	4511.06
656.756	4594.44
656.99	4575.2
657.224	4455.48
657.458	4335.77
657.691	4464.03
657.925	4263.08
658.159	4359.28
658.393	4267.36
658.627	4162.61
658.861	4192.54
659.094	4220.33
659.328	4288.74
659.562	4164.75
659.795	4154.06
660.029	4057.86
660.262	4017.24
660.496	4027.93
660.729	4060
660.963	3880.43
661.196	3985.18
661.429	3938.14
661.663	3739.33
661.896	3876.15
662.129	3807.74
662.362	3829.12
662.596	3700.85
662.829	3675.2
663.062	3728.64
663.295	3643.13
663.528	3666.65
663.761	3617.48
663.994	3641
664.227	3474.25
664.46	3480.67
664.692	3525.56
664.925	3459.29
665.158	3418.67
665.391	3463.56
665.623	3307.51
665.856	3420.81
666.089	3369.5
666.321	3320.33
666.554	3356.68
666.786	3258.34
667.019	3232.69
667.251	3258.34
667.484	3241.24
667.716	3149.31
667.948	3202.76
668.18	3014.63
668.413	3117.25
668.645	3172.83
668.877	3012.5
669.109	3089.46
669.341	3021.05
669.573	2948.36
669.805	3010.36
670.037	2905.61
670.269	2886.37
670.501	2871.41
670.733	2888.51
670.965	2832.93
671.197	2751.69
671.429	2713.21
671.66	2693.97
671.892	2651.22
672.124	2696.11
672.355	2693.97
672.587	2602.05
672.818	2599.91
673.05	2689.7
673.281	2683.28
673.513	2597.77
673.744	2574.26
673.976	2516.54
674.207	2563.57
674.438	2638.39
674.669	2503.71
674.901	2516.54
675.132	2512.26
675.363	2454.54
675.594	2486.61
675.825	2384
676.056	2388.27
676.287	2394.69
676.518	2322
676.749	2403.24
676.98	2349.79
677.211	2225.8
677.441	2341.24
677.672	2373.31
677.903	2215.11
678.134	2322
678.364	2242.91
678.595	2187.32
678.826	2206.56
679.056	2285.66
679.287	2195.87
679.517	2095.4
679.747	2099.68
679.978	2146.71
680.208	2082.57
680.439	2014.17
680.669	2007.75
680.899	2026.99
681.129	1986.37
681.359	2071.88
681.59	2003.48
681.82	2001.34
682.05	2009.89
682.28	2035.54
682.51	1855.97
682.74	1900.86
682.97	1943.62
683.199	1900.86
683.429	1864.52
683.659	1969.27
683.889	1890.18
684.119	1926.52
684.348	1881.62
684.578	1845.28
684.807	1838.87
685.037	1764.05
685.267	1811.08
685.496	1796.11
685.726	1764.05
685.955	1791.84
686.184	1721.29
686.414	1702.05
686.643	1759.77
686.872	1702.05
687.101	1680.68
687.331	1755.5
687.56	1669.99
687.789	1672.12
688.018	1571.65
688.247	1610.13
688.476	1655.02
688.705	1672.12
688.934	1601.58
689.163	1460.49
689.392	1496.83
689.621	1552.41
689.849	1546
690.078	1481.86
690.307	1573.79
690.535	1473.31
690.764	1477.59
690.993	1511.79
691.221	1550.27
691.45	1400.63
691.678	1484
691.907	1398.49
692.135	1424.15
692.363	1407.04
692.592	1327.95
692.82	1377.11
693.048	1366.43
693.276	1355.74
693.505	1357.87
693.733	1360.01
693.961	1302.29
694.189	1336.5
694.417	1278.78
694.645	1308.71
694.873	1349.32
695.101	1300.16
695.329	1250.99
695.556	1233.89
695.784	1295.88
696.012	1208.23
696.24	1259.54
696.467	1293.74
696.695	1156.93
696.923	1203.96
697.15	1176.17
697.378	1206.09
697.605	1152.65
697.833	1212.51
698.06	1201.82
698.287	1212.51
698.515	1099.21
698.742	1116.31
698.969	1133.41
699.197	1090.66
699.424	1129.14
699.651	1079.97
699.878	1041.49
700.105	1069.28
700.332	1109.9
700.559	1020.11
700.786	1073.55
701.013	1026.52
701.24	973.08
701.467	998.73
701.693	1071.42
701.92	953.84
702.147	975.22
702.374	1060.73
702.6	1060.73
702.827	1039.35
703.053	908.95
703.28	1003.01
703.506	953.84
703.733	955.98
703.959	970.94
704.186	955.98
704.412	913.22
704.638	964.53
704.865	964.53
705.091	889.71
705.317	958.11
705.543	930.32
705.769	936.74
705.995	919.64
706.221	812.75
706.447	891.84
706.673	802.06
706.899	855.5
707.125	780.68
707.351	851.23
707.577	825.57
707.802	896.12
708.028	861.92
708.254	868.33
708.479	859.78
708.705	823.44
708.931	846.95
709.156	846.95
709.382	789.23
709.607	782.82
709.832	842.68
710.058	810.61
710.283	797.78
710.508	727.24
710.734	767.85
710.959	795.65
711.184	810.61
711.409	725.1
711.634	791.37
711.859	776.41
712.084	742.2
712.309	812.75
712.534	789.23
712.759	772.13
712.984	755.03
713.209	714.41
713.434	767.85
713.659	725.1
713.883	701.58
714.108	690.9
714.333	699.45
714.557	693.03
714.782	729.38
715.006	718.69
715.231	708
715.455	671.66
715.68	772.13
715.904	663.1
716.128	735.79
716.352	1216.78
716.577	697.31
716.801	650.28
717.025	742.2
717.249	671.66
717.473	710.14
717.697	613.94
717.921	669.52
718.145	658.83
718.369	622.49
718.593	684.48
718.817	603.25
719.041	613.94
719.265	598.97
719.488	654.55
719.712	688.76
719.936	571.18
720.159	639.59
720.383	616.07
720.606	626.76
720.83	635.31
721.053	581.87
721.277	637.45
721.5	601.11
721.724	558.35
721.947	579.73
722.17	650.28
722.393	596.83
722.616	598.97
722.84	575.46
723.063	515.6
723.286	579.73
723.509	601.11
723.732	620.35
723.955	584.01
724.178	558.35
724.401	590.42
724.623	556.22
724.846	554.08
725.069	596.83
725.292	560.49
725.514	573.32
725.737	532.7
725.96	509.19
726.182	511.32
726.405	562.63
726.627	494.22
726.849	554.08
727.072	504.91
727.294	492.08
727.517	566.91
727.739	502.77
727.961	532.7
728.183	566.91
728.405	522.01
728.628	526.29
728.85	453.6
729.072	558.35
729.294	504.91
729.516	530.56
729.738	511.32
729.959	474.98
730.181	470.71
730.403	483.53
730.625	487.81
730.847	504.91
731.068	513.46
731.29	492.08
731.511	513.46
731.733	517.74
731.955	468.57
732.176	509.19
732.397	472.84
732.619	492.08
732.84	545.53
733.062	489.95
733.283	477.12
733.504	440.78
733.725	489.95
733.946	509.19
734.168	507.05
734.389	513.46
734.61	447.19
734.831	464.29
735.052	436.5
735.273	504.91
735.493	494.22
735.714	468.57
735.935	500.64
736.156	502.77
736.377	489.95
736.597	432.23
736.818	492.08
737.039	442.92
737.259	498.5
737.48	498.5
737.7	449.33
737.921	427.95
738.141	472.84
738.361	492.08
738.582	470.71
738.802	470.71
739.022	438.64
739.242	417.26
739.463	421.54
739.683	421.54
739.903	410.85
740.123	421.54
740.343	462.16
740.563	453.6
740.783	402.3
741.003	438.64
741.222	468.57
741.442	449.33
741.662	406.57
741.882	400.16
742.101	442.92
742.321	368.09
742.541	438.64
742.76	455.74
742.98	483.53
743.199	412.99
743.419	402.3
743.638	415.13
743.857	432.23
744.077	387.33
744.296	432.23
744.515	346.72
744.734	331.75
744.953	410.85
745.173	406.57
745.392	445.05
745.611	372.37
745.83	385.2
746.049	425.81
746.268	419.4
746.486	415.13
746.705	432.23
746.924	400.16
747.143	378.78
747.361	355.27
747.58	406.57
747.799	408.71
748.017	402.3
748.236	316.79
748.454	374.51
748.673	336.03
748.891	342.44
749.11	357.41
749.328	440.78
749.546	385.2
749.765	410.85
749.983	372.37
750.201	400.16
750.419	380.92
750.637	353.13
750.855	378.78
751.073	415.13
751.291	365.96
751.509	374.51
751.727	316.79
751.945	398.02
752.163	357.41
752.381	410.85
752.598	310.38
752.816	350.99
753.034	419.4
753.251	406.57
753.469	336.03
753.686	389.47
753.904	361.68
754.121	361.68
754.339	348.85
754.556	389.47
754.773	344.58
754.991	314.65
755.208	359.54
755.425	370.23
755.642	327.48
755.859	353.13
756.076	389.47
756.293	333.89
756.51	336.03
756.727	350.99
756.944	327.48
757.161	370.23
757.378	344.58
757.595	365.96
757.812	344.58
758.028	344.58
758.245	368.09
758.462	314.65
758.678	353.13
758.895	395.89
759.111	389.47
759.328	331.75
759.544	370.23
759.76	301.82
759.977	310.38
760.193	316.79
760.409	374.51
760.626	395.89
760.842	333.89
761.058	299.69
761.274	327.48
761.49	312.51
761.706	297.55
761.922	329.62
762.138	321.06
762.354	327.48
762.57	350.99
762.785	306.1
763.001	293.27
763.217	344.58
763.433	350.99
763.648	329.62
763.864	329.62
764.079	314.65
764.295	331.75
764.51	370.23
764.726	316.79
764.941	372.37
765.157	348.85
765.372	297.55
765.587	303.96
765.802	350.99
766.017	318.93
766.233	318.93
766.448	321.06
766.663	325.34
766.878	282.58
767.093	323.2
767.308	297.55
767.523	348.85
767.737	297.55
767.952	276.17
768.167	312.51
768.382	310.38
768.596	353.13
768.811	333.89
769.026	297.55
769.24	269.76
769.455	306.1
769.669	301.82
769.884	327.48
770.098	361.68
770.312	312.51
770.527	361.68
770.741	333.89
770.955	408.71
771.169	344.58
771.383	308.24
771.598	361.68
771.812	303.96
772.026	329.62
772.24	295.41
772.454	344.58
772.667	318.93
772.881	348.85
773.095	301.82
773.309	340.3
773.523	276.17
773.736	359.54
773.95	338.17
774.163	280.45
774.377	363.82
774.591	271.9
774.804	286.86
775.017	310.38
775.231	274.03
775.444	252.66
775.657	404.44
775.871	278.31
776.084	314.65
776.297	256.93
776.51	295.41
776.723	299.69
776.936	626.76
777.149	312.51
777.362	323.2
777.575	250.52
777.788	295.41
778.001	325.34
778.214	336.03
778.427	327.48
778.639	297.55
778.852	325.34
779.065	276.17
779.277	286.86
779.49	278.31
779.702	321.06
779.915	310.38
780.127	346.72
780.339	357.41
780.552	301.82
780.764	303.96
780.976	312.51
781.189	293.27
781.401	301.82
781.613	261.21
781.825	303.96
782.037	299.69
782.249	361.68
782.461	303.96
782.673	303.96
782.885	244.1
783.096	269.76
783.308	269.76
783.52	306.1
783.732	303.96
783.943	269.76
784.155	278.31
784.367	286.86
784.578	246.24
784.79	312.51
785.001	291.14
785.212	308.24
785.424	289
785.635	346.72
785.846	299.69
786.058	323.2
786.269	250.52
786.48	256.93
786.691	271.9
786.902	310.38
787.113	224.87
787.324	259.07
787.535	259.07
787.746	265.48
787.957	252.66
788.168	252.66
788.378	314.65
788.589	323.2
788.8	267.62
789.01	280.45
789.221	265.48
789.432	224.87
789.642	261.21
789.852	250.52
790.063	256.93
790.273	316.79
790.484	316.79
790.694	278.31
790.904	263.34
791.114	222.73
791.325	269.76
791.535	256.93
791.745	278.31
791.955	239.83
792.165	303.96
792.375	267.62
792.585	293.27
792.794	244.1
793.004	329.62
793.214	323.2
793.424	250.52
793.634	271.9
793.843	235.55
794.053	318.93
794.262	314.65
794.472	246.24
794.681	306.1
794.891	284.72
795.1	229.14
795.31	297.55
795.519	286.86
795.728	224.87
795.937	291.14
796.147	295.41
796.356	271.9
796.565	299.69
796.774	220.59
796.983	310.38
797.192	248.38
797.401	316.79
797.61	261.21
797.818	261.21
798.027	235.55
798.236	250.52
798.445	274.03
798.653	306.1
798.862	338.17
799.07	297.55
799.279	265.48
799.488	267.62
799.696	207.76
799.904	289
800.113	231.28
800.321	205.63
800.529	235.55
800.738	333.89
800.946	259.07
801.154	316.79
801.362	227
801.57	289
801.778	222.73
801.986	239.83
802.194	286.86
802.402	261.21
802.61	259.07
802.817	282.58
803.025	269.76
803.233	227
803.441	276.17
803.648	271.9
803.856	271.9
804.063	295.41
804.271	248.38
804.478	265.48
804.686	314.65
804.893	312.51
805.1	301.82
805.308	263.34
805.515	274.03
805.722	301.82
805.929	291.14
806.136	274.03
806.343	231.28
806.55	271.9
806.757	295.41
806.964	295.41
807.171	209.9
807.378	308.24
807.585	263.34
807.792	222.73
807.998	278.31
808.205	278.31
808.412	314.65
808.618	286.86
808.825	261.21
809.031	231.28
809.238	280.45
809.444	308.24
809.65	252.66
809.857	314.65
810.063	314.65
810.269	299.69
810.475	301.82
810.681	297.55
810.888	312.51
811.094	263.34
811.3	310.38
811.506	297.55
811.712	286.86
811.917	291.14
812.123	254.79
812.329	231.28
812.535	284.72
812.74	250.52
812.946	265.48
813.152	282.58
813.357	274.03
813.563	233.42
813.768	267.62
813.974	289
814.179	267.62
814.385	218.45
814.59	239.83
814.795	306.1
815	327.48
815.205	224.87
815.411	259.07
815.616	280.45
815.821	276.17
816.026	235.55
816.231	265.48
816.436	293.27
816.64	220.59
816.845	252.66
817.05	316.79
817.255	301.82
817.46	231.28
817.664	280.45
817.869	314.65
818.073	254.79
818.278	303.96
818.482	227
818.687	227
818.891	237.69
819.095	271.9
819.3	235.55
819.504	239.83
819.708	265.48
819.912	271.9
820.116	289
820.321	301.82
820.525	310.38
820.729	353.13
820.932	269.76
821.136	254.79
821.34	314.65
821.544	321.06
821.748	286.86
821.952	280.45
822.155	274.03
822.359	301.82
822.562	295.41
822.766	244.1
822.969	269.76
823.173	282.58
823.376	282.58
823.58	306.1
823.783	286.86
823.986	250.52
824.189	237.69
824.393	282.58
824.596	284.72
824.799	199.21
825.002	248.38
825.205	299.69
825.408	220.59
825.611	265.48
825.814	280.45
826.016	291.14
826.219	306.1
826.422	316.79
826.625	201.35
826.827	188.52
827.03	295.41
827.233	316.79
827.435	229.14
827.638	276.17
827.84	291.14
828.042	263.34
828.245	289
828.447	261.21
828.649	256.93
828.851	344.58
829.054	263.34
829.256	280.45
829.458	222.73
829.66	263.34
829.862	267.62
830.064	227
830.266	331.75
830.467	231.28
830.669	293.27
830.871	274.03
831.073	265.48
831.274	224.87
831.476	237.69
831.678	182.11
831.879	293.27
832.081	254.79
832.282	259.07
832.483	269.76
832.685	256.93
832.886	218.45
833.087	295.41
833.288	295.41
833.49	295.41
